Energy[keV], HPGe, LaBr3, Si(Li)
10, 0.000002799356637931933, 0, 0
11, 0.000039326530655354805, 0, 0
12, 0.000277225159284114, 0, 0
13, 0.0012063147932020507, 0, 0
14, 0.003715778384870201, 0, 0
15, 0.00889278772009676, 0, 0.011091847320639031
16, 0.017643301855288916, 0, 0.011332901608386134
17, 0.030386925847603226, 0, 0.011582774109965437
18, 0.046972112816957776, 0, 0.011839593324545521
19, 0.0667862816852897, 0, 0.012101905823416118
20, 0.08895446357845818, 0, 0.01236856461534414
21, 0.11253217537104215, 0, 0.012638651431159807
22, 0.136644654775362, 0, 0.012911421508209854
23, 0.16056391963035832, 0, 0.013186263640468886
24, 0.18373561982695835, 0, 0.013462670797333728
25, 0.2057732719809423, 0, 0.013740218193505814
26, 0.22643536189743713, 0, 0.0140185466991221
27, 0.2455962157402581, 0, 0.014297350134952647
28, 0.26321715539603835, 0, 0.014576365432882758
29, 0.27932119299084796, 0, 0.014855364936214088
30, 0.29397243630596426, 0, 0.015134150316531324
31, 0.3072602083169046, 0, 0.015412547724906446
32, 0.3192873255681685, 0, 0.01569040389493182
33, 0.3301617854003063, 0, 0.015967582986491355
34, 0.3399911116089617, 0, 0.016243964010938045
35, 0.3488786968937334, 0, 0.01651943871627389
36, 0.3569215990656935, 0, 0.0167939098390075
37, 0.3642093655067228, 0, 0.017067289650355456
38, 0.3708235637529733, 0, 0.017339498740285626
39, 0.3768377805042751, 0, 0.017610464994945386
40, 0.38231791784310787, 0.06439628387305626, 0.017880122732252642
41, 0.38732266571788054, 0.06490022154719854, 0.01814841196756358
42, 0.3919040672600219, 0.06534155406880454, 0.01841527778688268
43, 0.39610812073870005, 0.06573000568818944, 0.018680669809429805
44, 0.3999753814351361, 0.06607389967740078, 0.01894454172480816
45, 0.4035415405279502, 0.06638033873165966, 0.01920685089273596
46, 0.40683796756146173, 0.06665536762653045, 0.01946755799547417
47, 0.40989220959595296, 0.06690411790970678, 0.0197266267348225
48, 0.41272844440659, 0.06713093533980659, 0.019984023566958487
49, 0.4153678878948703, 0.06733949126893282, 0.020239717469531293
50, 0.41782915763534634, 0.0675328794498171, 0.020493679736346953
51, 0.42012859536115277, 0.06771369978819512, 0.020745883795738655
52, 0.4222805518201131, 0.0678841305663523, 0.02099630504933717
53, 0.424297637511143, 0.06804599055911033, 0.02124492072846886
54, 0.42619094278876746, 0.06820079235190017, 0.02149170976583374
55, 0.4279702307451836, 0.06834978803812744, 0.021736652680468063
56, 0.4296441059241787, 0.06849400834491223, 0.021979731474291046
57, 0.4312201617486523, 0.06863429609851526, 0.02222092953878131
58, 0.4327051092567626, 0.06877133483782419, 0.022460231570535512
59, 0.43410488942972625, 0.06890567326774592, 0.022697623494636707
60, 0.43542477115818895, 0.06903774614437858, 0.02293309239490663
61, 0.4366694366960323, 0.06916789211949632, 0.023166626450242183
62, 0.43784305615416225, 0.06929636897591294, 0.023398214876341517
63, 0.43894935247182665, 0.06942336663725843, 0.023627847872217306
64, 0.4399916580411384, 0.06954901827486028, 0.023855516570971128
65, 0.44097296411558984, 0.06967340978390484, 0.024081212994370094
66, 0.4418959638889927, 0.06979658787679707, 0.024304930010824066
67, 0.4427630900604098, 0.06991856697771616, 0.02452666129641067
68, 0.4435765476219121, 0.07003933510502898, 0.02474640129863844
69, 0.4443383424654351, 0.07015885888320199, 0.02496414520267478
70, 0.4450503063245677, 0.07027708780636886, 0.025179888899798043
71, 0.44571411856403315, 0.0703939578671377, 0.02539362895786007
72, 0.4463313251767342, 0.07050939463436223, 0.02560536259357067
73, 0.44690335537413933, 0.0706233158651209, 0.025815087646435825
74, 0.4474315360633642, 0.07073563371304914, 0.026022802554200843
75, 0.44791710446209093, 0.07084625659326149, 0.026228506329665016
76, 0.44836121912900684, 0.0709550907519607, 0.02643219853874948
77, 0.4487649695743538, 0.07106204158048413, 0.02663387927971175
78, 0.4491293846306475, 0.07116701471156336, 0.02683354916341219
79, 0.44945543975348623, 0.07126991693258701, 0.027031209294547005
80, 0.44974406339611844, 0.07137065693482644, 0.02722686125377101
81, 0.44999614253642667, 0.071469145928127, 0.02742050708064142
82, 0.4502125275018748, 0.07156529813418505, 0.02761214925732026
83, 0.4503940361588703, 0.07165903118619246, 0.027801790692979743
84, 0.45054145755075636, 0.07175026643350581, 0.027989434708859073
85, 0.45065555505362787, 0.07183892918035228, 0.02817508502392784
86, 0.45073706912008965, 0.07192494885628085, 0.028358745741113224
87, 0.45078671964448286, 0.07200825913932453, 0.028540421334054246
88, 0.4508052080007916, 0.07208879802491314, 0.028720116634347845
89, 0.4507932188187162, 0.0721665078644598, 0.02889783681925605
90, 0.45075142150768427, 0.07224133536904861, 0.0290735873998455
91, 0.45068047155450086, 0.07231323158457695, 0.029247374209533182
92, 0.4505810116522554, 0.07238215184353694, 0.02941920339301478
93, 0.4504536726475579, 0.0724480557005453, 0.02958908139555356
94, 0.4502990743743019, 0.07251090685097641, 0.02975701495261012
95, 0.4501178263334457, 0.07257067303480871, 0.02992301107979441
96, 0.4499105282949699, 0.07262732593567764, 0.030087077063123153
97, 0.44967777078104554, 0.07268084106437499, 0.0302492204495674
98, 0.4494201354929433, 0.07273119764109276, 0.030409449037875583
99, 0.4491381956622368, 0.07277837847311154, 0.03056777086965913
100, 0.44883251632794663, 0.07282236982468249, 0.030724194220728307
101, 0.4485036545947031, 0.07286316129243783, 0.03087872759266693
102, 0.44815215981833956, 0.07290074566843138, 0.03103137970463577
103, 0.4477785737636857, 0.07293511881417615, 0.03118215948539467
104, 0.4473834307469028, 0.07296627952629263, 0.03133107606553437
105, 0.44696725773016477, 0.07299422941006564, 0.031478138769909916
106, 0.4465305744135873, 0.07301897274852985, 0.03162335711026761
107, 0.4460738932834417, 0.07304051637674329, 0.031766740778058224
108, 0.44559771967858813, 0.07305886955624746, 0.03190829963742982
109, 0.4451025518198202, 0.0730740438549168, 0.03204804371839364
110, 0.44458888085311027, 0.07308605302744126, 0.03218598321015741
111, 0.4440571908460985, 0.07309491289697445, 0.0323221284546199
112, 0.44350795882745314, 0.07310064124467044, 0.032456489940022225
113, 0.4429416547952051, 0.07310325769754977, 0.03258907829475039
114, 0.4423587417176072, 0.07310278362487009, 0.032719904281284636
115, 0.44175967555293694, 0.07309924202804219, 0.032848978790291285
116, 0.44114490524581224, 0.07309265744850756, 0.03297631283485284
117, 0.4405148727597852, 0.07308305586497321, 0.03310191754483244
118, 0.43987001305649376, 0.0730704646040904, 0.03322580416136899
119, 0.4392107541188849, 0.0730549122459231, 0.03334798403149948
120, 0.4385375169868358, 0.07303642854187709, 0.03346846860290521
121, 0.43785071573047, 0.07301504432708986, 0.033587269418778584
122, 0.4371507575163621, 0.07299079144354594, 0.0337043981128076
123, 0.4364380425758746, 0.07296370266040261, 0.03381986640427517
124, 0.43571296428490436, 0.07293381160041351, 0.03393368609327055
125, 0.4349759091480717, 0.07290115266889766, 0.03404586905601002
126, 0.4342272568428353, 0.07286576098798088, 0.034156427240264714
127, 0.4334673802707934, 0.07282767232796844, 0.0342653726608929
128, 0.43269664556871196, 0.07278692304695183, 0.03437271739547445
129, 0.43191541215546014, 0.07274355002945462, 0.0344784735800454
130, 0.4311240327822264, 0.0726975906328482, 0.03458265340493045
131, 0.4303228535795818, 0.07264908262983956, 0.034685269110671206
132, 0.42951221409626616, 0.0725980641572437, 0.03478633298404846
133, 0.42869244735711787, 0.07254457366938341, 0.03488585735419632
134, 0.4278638799139519, 0.07248864988348734, 0.034983854588806575
135, 0.4270268319027831, 0.07243033174511875, 0.035080337090421534
136, 0.42618161710643804, 0.07236965837825363, 0.035175317292813264
137, 0.42532854301848827, 0.07230666904600916, 0.035268807657448095
138, 0.42446791089484776, 0.072241403113324, 0.035360820670034404
139, 0.4236000158298363, 0.07217390001230266, 0.03545136883715216
140, 0.42272514681789475, 0.07210419920359598, 0.035540464682962944
141, 0.421843586823548, 0.07203234014528631, 0.03562812074599857
142, 0.4209556128599969, 0.07195836226409304, 0.035714349576027246
143, 0.42006149604568505, 0.07188230492086417, 0.035799163730995655
144, 0.4191615016936253, 0.07180420738832344, 0.03588257577404568
145, 0.41825588937279434, 0.07172410882232201, 0.035964598270604324
146, 0.417344912997346, 0.07164204823740479, 0.036045243785545696
147, 0.41642882088791344, 0.07155806448450124, 0.036124524880423656
148, 0.41550785585172273, 0.07147219622695644, 0.03620245411077398
149, 0.4145822552795736, 0.0713844819213449, 0.036279044023484606
150, 0.41365225120366783, 0.07129495980217485, 0.036354307154233115
151, 0.41271807037440655, 0.07120366785425715, 0.03642825602499005
152, 0.4117799343639048, 0.07111064380599488, 0.03650090314158686
153, 0.41083805961908304, 0.07101592510926455, 0.03657226099134765
154, 0.4098926575552311, 0.07091954892247898, 0.036642342040783336
155, 0.40894393463995266, 0.07082155210149137, 0.03671115873334722
156, 0.4079920924611674, 0.07072197118576759, 0.03677872348725111
157, 0.4070373278049871, 0.0706208423809961, 0.036845048693340605
158, 0.4060798327710891, 0.0705182015614939, 0.03691014671302881
159, 0.4051197947938947, 0.07041408424390139, 0.036974029876287375
160, 0.40415739677144114, 0.070308525590434, 0.03703671047969375
161, 0.403192817124838, 0.07020156039545813, 0.037098200784534054
162, 0.40222622986946366, 0.07009322307763075, 0.03715851301495998
163, 0.4012578047147171, 0.06998354767539597, 0.037217659356199584
164, 0.4002877071219908, 0.06987256783636203, 0.037275651952820225
165, 0.39931609839399074, 0.06976031681983592, 0.03733250290704341
166, 0.39834313574337915, 0.06964682748153235, 0.03738822427711028
167, 0.397368972371251, 0.06953213227703389, 0.03744282807569685
168, 0.3963937575539343, 0.0694162632555284, 0.03749632626837837
169, 0.39541763668964347, 0.06929925205260926, 0.03754873077214169
170, 0.3944407514180636, 0.06918112989680308, 0.03760005345394495
171, 0.39346323963317575, 0.0690619275951951, 0.03765030612932366
172, 0.39248523562456894, 0.0689416755434873, 0.03769950056104239
173, 0.3915068700807446, 0.06882040371424906, 0.03774764845779134
174, 0.39052827021063796, 0.06869814166116264, 0.037794761472926736
175, 0.3895495597846526, 0.0685749185198513, 0.0378408512032546
176, 0.3885708592361017, 0.06845076300321165, 0.03788592918785679
177, 0.3875922856847043, 0.06832570340422703, 0.03793000690695889
178, 0.3866139530443614, 0.06819976759451861, 0.03797309578083873
179, 0.3856359720503659, 0.0680729830266803, 0.03801520716877531
180, 0.38465845037743657, 0.06794537673393397, 0.03805635236803698
181, 0.38368149264978163, 0.06781697533110755, 0.03809654261290832
182, 0.38270520053840246, 0.06768780501992455, 0.03813578907375504
183, 0.3817296728164769, 0.06755789158301835, 0.038174102856126046
184, 0.38075500541251633, 0.06742726039236074, 0.03821149499989211
185, 0.3797812914860732, 0.06729593640997793, 0.0382479764784204
186, 0.37880862146818717, 0.06716394418878885, 0.038283558197784076
187, 0.37783708314161557, 0.06703130787556236, 0.0383182509960066
188, 0.37686676168599365, 0.06689805121442485, 0.038352065642339644
189, 0.37589773973480906, 0.06676419754972336, 0.03838501283657431
190, 0.3749300974301921, 0.06662976982597381, 0.038417103208384866
191, 0.37396391249167393, 0.06649479059539126, 0.03844834731670434
192, 0.3729992602605392, 0.0663592820194033, 0.03847875564913135
193, 0.37203621373522955, 0.0662232658705149, 0.038508338621367696
194, 0.37107484366662175, 0.06608676353887115, 0.038537106576685756
195, 0.37011521856331697, 0.06594979603025568, 0.03856506978542553
196, 0.369157404784899, 0.06581238397704389, 0.03859223844452031
197, 0.3682014665376254, 0.06567454763590032, 0.03861862267705067
198, 0.36724746597704294, 0.06553630689568975, 0.038644232531826125
199, 0.3662954632363892, 0.06539768127849482, 0.03866907798299368
200, 0.36534551646247604, 0.06525868994452225, 0.038693168929673165
201, 0.36439768186516225, 0.06511935169793207, 0.03871651519561817
202, 0.36345201377623093, 0.06497968498818422, 0.03873912652890268
203, 0.3625085646832813, 0.06483970791454106, 0.03876101260163229
204, 0.36156738526716947, 0.06469943823229714, 0.03878218300967991
205, 0.3606285244552222, 0.0645588933553535, 0.038802647272445125
206, 0.359692029454923, 0.06441809035830533, 0.03882241483263683
207, 0.3587579458154996, 0.06427704598499791, 0.038841495056078625
208, 0.3578263174254259, 0.06413577665124401, 0.03885989723153645
209, 0.3568971865991264, 0.06399429844714036, 0.038877630570567784
210, 0.35597059408385334, 0.06385262714278787, 0.038894704207392314
211, 0.3550465791129399, 0.06371077819509753, 0.038911127198783146
212, 0.35412517942402055, 0.06356876674375993, 0.03892690852397835
213, 0.3532064313281336, 0.06342660762804188, 0.03894205708461228
214, 0.3522903697078234, 0.06328431538026459, 0.0389565817046662
215, 0.35137702808209476, 0.06314190423357427, 0.03897049113043777
216, 0.35046643861333204, 0.06299938812782639, 0.03898379403052893
217, 0.3495586321724087, 0.06285678071478623, 0.03899649899585174
218, 0.34865363833648877, 0.06271409535716445, 0.039008614539651716
219, 0.34775148544980866, 0.06257134513601013, 0.039020149097548265
220, 0.34685220063464334, 0.06242854285767939, 0.03903111102759176
221, 0.3459558098325998, 0.062285701050661176, 0.039041508610336825
222, 0.3450623378422034, 0.0621428319792359, 0.039051350048931455
223, 0.34417180831979277, 0.06199994763867475, 0.039060643469221536
224, 0.3432842438358593, 0.06185705976518876, 0.03906939691987036
225, 0.3423996658916839, 0.061714179837752195, 0.03907761837249275
226, 0.34151809495327695, 0.061571319082071925, 0.03908531572180338
227, 0.34063955046516703, 0.06142848847456127, 0.03909249678577896
228, 0.3397640508919842, 0.06128569874821564, 0.03909916930583383
229, 0.3388916137262288, 0.06114296039176927, 0.03910534094700865
230, 0.33802225553055887, 0.061000283661863546, 0.03911101929817183
231, 0.33715599196201645, 0.06085767857758157, 0.03911621187223328
232, 0.33629283776474844, 0.06071515492968013, 0.03912092610637013
233, 0.3354328068532571, 0.06057272228522375, 0.03912516936226419
234, 0.33457591227328604, 0.0604303899877939, 0.03912894892635059
235, 0.33372216625951423, 0.060288167163245365, 0.03913227201007748
236, 0.33287158024539926, 0.06014606272187485, 0.03913514575017639
237, 0.3320241648914317, 0.060004085365347876, 0.039137577208942696
238, 0.33117993010513347, 0.0598622435867826, 0.039139573374526386
239, 0.33033888504486864, 0.059720545676004204, 0.03914114116123223
240, 0.3295010381689243, 0.059578999722548154, 0.039142287409829446
241, 0.3286663972371562, 0.05943761361981003, 0.039143018887870334
242, 0.32783496932074885, 0.05929639506743009, 0.039143342290017806
243, 0.3270067608414695, 0.05915535157543463, 0.03914326423838119
244, 0.3261817775909996, 0.059014490468131474, 0.03914279128286039
245, 0.32536002471449044, 0.05887381888516252, 0.03914192990149778
246, 0.32454150676978855, 0.05873334378673742, 0.03914068650083779
247, 0.32372622772215764, 0.05859307195875478, 0.039139067416293825
248, 0.3229141909671659, 0.05845301001034238, 0.03913707891252223
249, 0.3221053993382147, 0.0583131643822359, 0.03913472718380302
250, 0.321299855128656, 0.058173541346615766, 0.03913201835442725
251, 0.32049756011632535, 0.05803414701252408, 0.03912895847909051
252, 0.3196985155638969, 0.057894987328112685, 0.03912555354329267
253, 0.3189027222398374, 0.05775606808277189, 0.0391218094637432
254, 0.3181101804313546, 0.057617394909717644, 0.0391177320887722
255, 0.31732088996147256, 0.057478973291780075, 0.039113327198746675
256, 0.31653485020494315, 0.05734080856174356, 0.039108600506491856
257, 0.3157520600737198, 0.05720290590220988, 0.03910355765771748
258, 0.3149725180933174, 0.0570652703583823, 0.0390982042314486
259, 0.31419622233414923, 0.056927906827254904, 0.039092545740460866
260, 0.3134231704963488, 0.056790820072642224, 0.03908658763171999
261, 0.31265335987316717, 0.056654014718719, 0.03908033528682523
262, 0.3118867873933226, 0.05651749525979357, 0.03907379402245659
263, 0.31112344960146576, 0.05638126605471047, 0.03906696909082567
264, 0.31036334270473415, 0.05624533133861705, 0.039059865680129896
265, 0.30960646255966634, 0.056109695218299324, 0.039052488915009904
266, 0.30885280468900794, 0.05597436167748858, 0.03904484385700995
267, 0.308102364296605, 0.055839334579959626, 0.03903693550504116
268, 0.30735513626626365, 0.05570461766983048, 0.039028768795847435
269, 0.30661111519598344, 0.05557021457559827, 0.0390203486044737
270, 0.3058702953740334, 0.055436128811684346, 0.039011679744736585
271, 0.3051326708074526, 0.055302363780076316, 0.03900276696969716
272, 0.3043982352426916, 0.05516892277389023, 0.038993614972135625
273, 0.3036669821425859, 0.055035808978903304, 0.03898422838502777
274, 0.30293890472717666, 0.05490302547531298, 0.03897461178202312
275, 0.3022139959661951, 0.05477057524115028, 0.03896476967792449
276, 0.3014922485883535, 0.05463846115324448, 0.03895470652916893
277, 0.30077365508804754, 0.05450668598562476, 0.038944426734309784
278, 0.3000582077443852, 0.054375252422692456, 0.03893393463449986
279, 0.2993458986160939, 0.054244163047039745, 0.03892323451397538
280, 0.29863671955042437, 0.054113420352953315, 0.03891233060054078
281, 0.2979306622035497, 0.05398302674054779, 0.03890122706605409
282, 0.2972277180350998, 0.05385298452212086, 0.0388899280269128
283, 0.29652787830658583, 0.053723295921035225, 0.038878437544540095
284, 0.29583113411432216, 0.053593963075846573, 0.03886675962587129
285, 0.295137476377061, 0.05346498804269642, 0.03885489822384044
286, 0.29444689584616335, 0.05333637279357324, 0.038842857237866825
287, 0.2937593831142268, 0.05320811922072766, 0.038830640514341506
288, 0.293074928618663, 0.05308022913773073, 0.03881825184711342
289, 0.29239352265470014, 0.052952704279681226, 0.0388056949779753
290, 0.29171515535968356, 0.05282554630892389, 0.03879297359714901
291, 0.291039816746532, 0.052698756812148806, 0.03878009134377047
292, 0.29036749670477535, 0.05257233730430456, 0.038767051806373784
293, 0.28969818498590105, 0.05244628922931324, 0.03875385852337464
294, 0.28903187121427004, 0.052320613961578416, 0.038740514983552944
295, 0.28836854492469877, 0.052195312808503744, 0.0387270246265344
296, 0.28770819551300986, 0.052070387009897134, 0.03871339084327107
297, 0.2870508122880988, 0.05194583774270975, 0.03869961697652085
298, 0.28639638445481497, 0.051821666118242134, 0.0386857063213257
299, 0.2857449011211133, 0.051697873187306405, 0.03867166212548862
300, 0.2850963512912041, 0.05157445993835987, 0.03865748759004911
301, 0.28445072390865866, 0.051451427303005184, 0.03864318586975741
302, 0.2838080078155565, 0.0513287761533054, 0.03862876007354695
303, 0.2831681917735094, 0.05120650730292587, 0.03861421326500542
304, 0.2825312644794857, 0.0510846215139905, 0.03859954846284397
305, 0.28189721454764083, 0.050963119488340335, 0.038584768641364835
306, 0.28126603054079313, 0.0508420018808907, 0.038569876730926995
307, 0.2806377009508105, 0.05072126929158789, 0.038554875618410075
308, 0.28001221420259104, 0.05060092226938624, 0.03853976814767622
309, 0.27938955867393334, 0.05048096131539194, 0.03852455712003002
310, 0.2787697226915921, 0.05036138687902657, 0.038509245294676364
311, 0.27815269452061614, 0.05024219936690606, 0.038493835389176154
312, 0.2775384623879335, 0.05012339913398353, 0.03847833007989983
313, 0.2769270144898803, 0.05000498649491113, 0.03846273200247881
314, 0.2763183389608315, 0.04988696171880849, 0.038447043752254426
315, 0.27571242391750106, 0.04976932503028658, 0.03843126788472476
316, 0.27510925741883596, 0.04965207661192776, 0.03841540691598889
317, 0.2745088275189346, 0.049535216606164945, 0.03839946332318899
318, 0.2739111222209602, 0.049418745113805354, 0.038383439544949674
